in Sa,Frequency in Hz,Gain in dB,Phase in °,Amplitude in Vpp
1.00E+00,1.000E+05,2.405E-01,4.873E-01,2.500E+00
2.00E+00,1.047E+05,2.441E-01,4.944E-01,2.500E+00
3.00E+00,1.096E+05,2.480E-01,4.762E-01,2.500E+00
4.00E+00,1.148E+05,2.494E-01,5.778E-01,2.500E+00
5.00E+00,1.202E+05,2.579E-01,5.307E-01,2.500E+00
6.00E+00,1.259E+05,2.555E-01,5.284E-01,2.500E+00
7.00E+00,1.318E+05,2.769E-01,4.956E-01,2.500E+00
8.00E+00,1.380E+05,2.705E-01,5.735E-01,2.500E+00
9.00E+00,1.445E+05,2.688E-01,6.474E-01,2.500E+00
1.00E+01,1.514E+05,2.864E-01,5.732E-01,2.500E+00
1.10E+01,1.585E+05,2.855E-01,6.275E-01,2.500E+00
1.20E+01,1.660E+05,2.878E-01,5.628E-01,2.500E+00
1.30E+01,1.738E+05,2.914E-01,5.894E-01,2.500E+00
1.40E+01,1.820E+05,2.944E-01,6.781E-01,2.500E+00
1.50E+01,1.905E+05,2.972E-01,6.709E-01,2.500E+00
1.60E+01,1.995E+05,3.101E-01,6.126E-01,2.500E+00
1.70E+01,2.089E+05,2.834E-01,7.308E-01,2.500E+00
1.80E+01,2.188E+05,2.997E-01,6.449E-01,2.500E+00
1.90E+01,2.291E+05,2.980E-01,7.902E-01,2.500E+00
2.00E+01,2.399E+05,3.016E-01,6.898E-01,2.500E+00
2.10E+01,2.512E+05,3.259E-01,5.677E-01,2.500E+00
2.20E+01,2.630E+05,3.270E-01,7.411E-01,2.500E+00
2.30E+01,2.754E+05,3.196E-01,7.128E-01,2.500E+00
2.40E+01,2.884E+05,3.475E-01,6.092E-01,2.500E+00
2.50E+01,3.020E+05,3.555E-01,5.696E-01,2.500E+00
2.60E+01,3.162E+05,3.423E-01,5.861E-01,2.500E+00
2.70E+01,3.311E+05,3.606E-01,5.963E-01,2.500E+00
2.80E+01,3.467E+05,3.579E-01,6.042E-01,2.500E+00
2.90E+01,3.631E+05,3.643E-01,4.767E-01,2.500E+00
3.00E+01,3.802E+05,3.776E-01,5.934E-01,2.500E+00
3.10E+01,3.981E+05,3.741E-01,4.783E-01,2.500E+00
3.20E+01,4.169E+05,3.635E-01,3.736E-01,2.500E+00
3.30E+01,4.365E+05,3.893E-01,4.216E-01,2.500E+00
3.40E+01,4.571E+05,3.586E-01,2.623E-01,2.500E+00
3.50E+01,4.786E+05,3.695E-01,4.309E-01,2.500E+00
3.60E+01,5.012E+05,3.823E-01,4.029E-01,2.500E+00
3.70E+01,5.248E+05,3.857E-01,2.242E-01,2.500E+00
3.80E+01,5.495E+05,4.200E-01,3.307E-01,2.500E+00
3.90E+01,5.754E+05,3.701E-01,3.655E-01,2.500E+00
4.00E+01,6.026E+05,3.848E-01,3.885E-01,2.500E+00
4.10E+01,6.310E+05,3.930E-01,3.435E-01,2.500E+00
4.20E+01,6.607E+05,3.667E-01,4.411E-01,2.500E+00
4.30E+01,6.918E+05,4.143E-01,5.118E-01,2.500E+00
4.40E+01,7.244E+05,4.021E-01,2.490E-01,2.500E+00
4.50E+01,7.586E+05,3.861E-01,3.586E-01,2.500E+00
4.60E+01,7.943E+05,4.170E-01,3.517E-01,2.500E+00
4.70E+01,8.318E+05,4.398E-01,4.284E-01,2.500E+00
4.80E+01,8.710E+05,4.191E-01,2.562E-01,2.500E+00
4.90E+01,9.120E+05,4.512E-01,3.235E-01,2.500E+00
5.00E+01,9.550E+05,4.453E-01,1.597E-01,2.500E+00
5.10E+01,1.000E+06,4.612E-01,2.143E-01,2.500E+00
5.20E+01,1.047E+06,4.843E-01,3.225E-01,2.500E+00
5.30E+01,1.096E+06,4.882E-01,6.967E-02,2.500E+00
5.40E+01,1.148E+06,5.197E-01,9.507E-02,2.500E+00
5.50E+01,1.202E+06,5.165E-01,-7.527E-02,2.500E+00
5.60E+01,1.259E+06,5.095E-01,-1.488E-01,2.500E+00
5.70E+01,1.318E+06,5.099E-01,-1.081E-01,2.500E+00
5.80E+01,1.380E+06,5.278E-01,-1.839E-01,2.500E+00
5.90E+01,1.445E+06,5.095E-01,-1.961E-01,2.500E+00
6.00E+01,1.514E+06,5.365E-01,-6.328E-01,2.500E+00
6.10E+01,1.585E+06,5.054E-01,-5.058E-01,2.500E+00
6.20E+01,1.660E+06,5.188E-01,-6.233E-01,2.500E+00
6.30E+01,1.738E+06,4.878E-01,-6.281E-01,2.500E+00
6.40E+01,1.820E+06,5.269E-01,-1.098E+00,2.500E+00
6.50E+01,1.905E+06,4.959E-01,-9.267E-01,2.500E+00
6.60E+01,1.995E+06,5.178E-01,-1.201E+00,2.500E+00
6.70E+01,2.089E+06,5.079E-01,-1.313E+00,2.500E+00
6.80E+01,2.188E+06,4.969E-01,-1.365E+00,2.500E+00
6.90E+01,2.291E+06,4.982E-01,-1.272E+00,2.500E+00
7.00E+01,2.399E+06,4.848E-01,-1.934E+00,2.500E+00
7.10E+01,2.512E+06,4.938E-01,-1.799E+00,2.500E+00
7.20E+01,2.630E+06,5.068E-01,-1.694E+00,2.500E+00
7.30E+01,2.754E+06,4.689E-01,-2.162E+00,2.500E+00
7.40E+01,2.884E+06,4.431E-01,-1.819E+00,2.500E+00
7.50E+01,3.020E+06,4.774E-01,-2.185E+00,2.500E+00
7.60E+01,3.162E+06,4.370E-01,-2.571E+00,2.500E+00
7.70E+01,3.311E+06,4.065E-01,-2.651E+00,2.500E+00
7.80E+01,3.467E+06,4.059E-01,-2.575E+00,2.500E+00
7.90E+01,3.631E+06,4.304E-01,-2.746E+00,2.500E+00
8.00E+01,3.802E+06,3.971E-01,-2.677E+00,2.500E+00
8.10E+01,3.981E+06,3.136E-01,-2.955E+00,2.500E+00
8.20E+01,4.169E+06,3.676E-01,-2.794E+00,2.500E+00
8.30E+01,4.365E+06,3.448E-01,-3.580E+00,2.500E+00
8.40E+01,4.571E+06,2.671E-01,-3.396E+00,2.500E+00
8.50E+01,4.786E+06,3.148E-01,-3.435E+00,2.500E+00
8.60E+01,5.012E+06,3.739E-01,-4.079E+00,2.500E+00
8.70E+01,5.248E+06,2.260E-01,-4.073E+00,2.500E+00
8.80E+01,5.495E+06,1.640E-01,-3.913E+00,2.500E+00
8.90E+01,5.754E+06,1.551E-01,-3.961E+00,2.500E+00
9.00E+01,6.026E+06,1.596E-01,-4.110E+00,2.500E+00
9.10E+01,6.310E+06,5.638E-02,-3.674E+00,2.500E+00
9.20E+01,6.607E+06,-5.308E-02,-4.081E+00,2.500E+00
9.30E+01,6.918E+06,3.660E-02,-4.629E+00,2.500E+00
9.40E+01,7.244E+06,-7.438E-02,-4.454E+00,2.500E+00
9.50E+01,7.586E+06,-5.111E-02,-4.835E+00,2.500E+00
9.60E+01,7.943E+06,-1.202E-01,-4.545E+00,2.500E+00
9.70E+01,8.318E+06,-2.391E-01,-4.836E+00,2.500E+00
9.80E+01,8.710E+06,-2.096E-01,-4.987E+00,2.500E+00
9.90E+01,9.120E+06,-2.804E-01,-4.235E+00,2.500E+00
1.00E+02,9.550E+06,-2.537E-01,-5.069E+00,2.500E+00
1.01E+02,1.000E+07,-3.598E-01,-4.674E+00,2.500E+00
1.02E+02,1.047E+07,-4.987E-01,-3.941E+00,2.500E+00
1.03E+02,1.096E+07,-5.000E-01,-4.787E+00,2.500E+00
1.04E+02,1.148E+07,-5.850E-01,-4.512E+00,2.500E+00
1.05E+02,1.202E+07,-6.382E-01,-5.050E+00,2.500E+00
1.06E+02,1.259E+07,-6.089E-01,-4.801E+00,2.500E+00
1.07E+02,1.318E+07,-5.443E-01,-4.296E+00,2.500E+00
1.08E+02,1.380E+07,-8.716E-01,-4.258E+00,2.500E+00
1.09E+02,1.445E+07,-8.682E-01,-4.224E+00,2.500E+00
1.10E+02,1.514E+07,-9.642E-01,-4.691E+00,2.500E+00
1.11E+02,1.585E+07,-9.648E-01,-2.901E+00,2.500E+00
1.12E+02,1.660E+07,-1.199E+00,-4.354E+00,2.500E+00
1.13E+02,1.738E+07,-1.111E+00,-4.455E+00,2.500E+00
1.14E+02,1.820E+07,-1.111E+00,-4.254E+00,2.500E+00
1.15E+02,1.905E+07,-1.425E+00,-2.833E+00,2.500E+00
1.16E+02,1.995E+07,-1.548E+00,-4.026E+00,2.500E+00
1.17E+02,2.089E+07,-1.794E+00,-3.997E+00,2.500E+00
1.18E+02,2.188E+07,-1.737E+00,-4.010E+00,2.500E+00
1.19E+02,2.291E+07,-1.877E+00,-4.394E+00,2.500E+00
1.20E+02,2.399E+07,-2.118E+00,-4.310E+00,2.500E+00
