in Sa,Frequency in Hz,Gain in dB,Phase in °,Amplitude in Vpp
1.00E+00,1.000E+05,2.755E-01,4.856E-01,2.500E+00
2.00E+00,1.047E+05,2.906E-01,4.484E-01,2.500E+00
3.00E+00,1.096E+05,2.990E-01,4.779E-01,2.500E+00
4.00E+00,1.148E+05,2.969E-01,5.275E-01,2.500E+00
5.00E+00,1.202E+05,3.182E-01,5.507E-01,2.500E+00
6.00E+00,1.259E+05,2.994E-01,4.553E-01,2.500E+00
7.00E+00,1.318E+05,2.578E-01,4.069E-01,2.500E+00
8.00E+00,1.380E+05,3.254E-01,4.799E-01,2.500E+00
9.00E+00,1.445E+05,3.271E-01,5.031E-01,2.500E+00
1.00E+01,1.514E+05,3.342E-01,5.499E-01,2.500E+00
1.10E+01,1.585E+05,3.269E-01,5.443E-01,2.500E+00
1.20E+01,1.660E+05,3.302E-01,5.717E-01,2.500E+00
1.30E+01,1.738E+05,3.386E-01,5.782E-01,2.500E+00
1.40E+01,1.820E+05,3.364E-01,5.475E-01,2.500E+00
1.50E+01,1.905E+05,3.423E-01,4.965E-01,2.500E+00
1.60E+01,1.995E+05,3.478E-01,5.321E-01,2.500E+00
1.70E+01,2.089E+05,3.650E-01,5.716E-01,2.500E+00
1.80E+01,2.188E+05,3.664E-01,5.426E-01,2.500E+00
1.90E+01,2.291E+05,3.623E-01,6.153E-01,2.500E+00
2.00E+01,2.399E+05,3.681E-01,6.947E-01,2.500E+00
2.10E+01,2.512E+05,3.877E-01,5.786E-01,2.500E+00
2.20E+01,2.630E+05,3.749E-01,5.354E-01,2.500E+00
2.30E+01,2.754E+05,3.746E-01,5.439E-01,2.500E+00
2.40E+01,2.884E+05,4.003E-01,5.786E-01,2.500E+00
2.50E+01,3.020E+05,4.078E-01,5.309E-01,2.500E+00
2.60E+01,3.162E+05,3.998E-01,5.045E-01,2.500E+00
2.70E+01,3.311E+05,3.974E-01,3.890E-01,2.500E+00
2.80E+01,3.467E+05,3.859E-01,4.451E-01,2.500E+00
2.90E+01,3.631E+05,4.140E-01,3.287E-01,2.500E+00
3.00E+01,3.802E+05,4.285E-01,4.394E-01,2.500E+00
3.10E+01,3.981E+05,3.994E-01,4.782E-01,2.500E+00
3.20E+01,4.169E+05,4.142E-01,3.836E-01,2.500E+00
3.30E+01,4.365E+05,4.177E-01,3.588E-01,2.500E+00
3.40E+01,4.571E+05,4.305E-01,1.699E-01,2.500E+00
3.50E+01,4.786E+05,4.059E-01,2.498E-01,2.500E+00
3.60E+01,5.012E+05,3.802E-01,3.289E-01,2.500E+00
3.70E+01,5.248E+05,4.128E-01,3.976E-01,2.500E+00
3.80E+01,5.495E+05,4.095E-01,3.263E-01,2.500E+00
3.90E+01,5.754E+05,4.210E-01,3.585E-01,2.500E+00
4.00E+01,6.026E+05,4.021E-01,2.065E-01,2.500E+00
4.10E+01,6.310E+05,4.023E-01,3.643E-01,2.500E+00
4.20E+01,6.607E+05,4.353E-01,3.314E-01,2.500E+00
4.30E+01,6.918E+05,4.182E-01,4.328E-01,2.500E+00
4.40E+01,7.244E+05,4.553E-01,4.009E-01,2.500E+00
4.50E+01,7.586E+05,4.361E-01,2.696E-01,2.500E+00
4.60E+01,7.943E+05,4.511E-01,4.113E-01,2.500E+00
4.70E+01,8.318E+05,4.613E-01,3.267E-01,2.500E+00
4.80E+01,8.710E+05,4.683E-01,2.521E-01,2.500E+00
4.90E+01,9.120E+05,4.701E-01,3.400E-01,2.500E+00
5.00E+01,9.550E+05,4.928E-01,2.281E-01,2.500E+00
5.10E+01,1.000E+06,5.169E-01,5.009E-02,2.500E+00
5.20E+01,1.047E+06,4.974E-01,5.433E-02,2.500E+00
5.30E+01,1.096E+06,4.701E-01,3.906E-03,2.500E+00
5.40E+01,1.148E+06,4.789E-01,-6.765E-02,2.500E+00
5.50E+01,1.202E+06,5.555E-01,-6.514E-02,2.500E+00
5.60E+01,1.259E+06,5.205E-01,-4.558E-01,2.500E+00
5.70E+01,1.318E+06,4.960E-01,1.973E-02,2.500E+00
5.80E+01,1.380E+06,5.239E-01,-2.615E-01,2.500E+00
5.90E+01,1.445E+06,5.398E-01,-3.928E-01,2.500E+00
6.00E+01,1.514E+06,4.706E-01,-5.059E-01,2.500E+00
6.10E+01,1.585E+06,5.409E-01,-5.123E-01,2.500E+00
6.20E+01,1.660E+06,5.415E-01,-6.292E-01,2.500E+00
6.30E+01,1.738E+06,5.367E-01,-6.177E-01,2.500E+00
6.40E+01,1.820E+06,5.106E-01,-9.868E-01,2.500E+00
6.50E+01,1.905E+06,5.289E-01,-9.658E-01,2.500E+00
6.60E+01,1.995E+06,5.203E-01,-1.087E+00,2.500E+00
6.70E+01,2.089E+06,5.248E-01,-8.507E-01,2.500E+00
6.80E+01,2.188E+06,4.786E-01,-1.330E+00,2.500E+00
6.90E+01,2.291E+06,5.496E-01,-1.635E+00,2.500E+00
7.00E+01,2.399E+06,4.574E-01,-1.320E+00,2.500E+00
7.10E+01,2.512E+06,5.002E-01,-2.099E+00,2.500E+00
7.20E+01,2.630E+06,4.764E-01,-1.991E+00,2.500E+00
7.30E+01,2.754E+06,4.672E-01,-1.782E+00,2.500E+00
7.40E+01,2.884E+06,4.746E-01,-1.681E+00,2.500E+00
7.50E+01,3.020E+06,4.694E-01,-1.929E+00,2.500E+00
7.60E+01,3.162E+06,4.471E-01,-1.991E+00,2.500E+00
7.70E+01,3.311E+06,4.235E-01,-2.226E+00,2.500E+00
7.80E+01,3.467E+06,3.957E-01,-2.457E+00,2.500E+00
7.90E+01,3.631E+06,3.965E-01,-2.298E+00,2.500E+00
8.00E+01,3.802E+06,3.291E-01,-2.864E+00,2.500E+00
8.10E+01,3.981E+06,3.419E-01,-2.700E+00,2.500E+00
8.20E+01,4.169E+06,2.518E-01,-3.150E+00,2.500E+00
8.30E+01,4.365E+06,2.755E-01,-2.930E+00,2.500E+00
8.40E+01,4.571E+06,2.263E-01,-2.541E+00,2.500E+00
8.50E+01,4.786E+06,1.803E-01,-3.292E+00,2.500E+00
8.60E+01,5.012E+06,1.559E-01,-3.225E+00,2.500E+00
8.70E+01,5.248E+06,1.747E-01,-3.536E+00,2.500E+00
8.80E+01,5.495E+06,1.823E-01,-3.734E+00,2.500E+00
8.90E+01,5.754E+06,8.662E-02,-3.494E+00,2.500E+00
9.00E+01,6.026E+06,3.294E-02,-3.524E+00,2.500E+00
9.10E+01,6.310E+06,2.719E-02,-3.355E+00,2.500E+00
9.20E+01,6.607E+06,3.878E-02,-3.002E+00,2.500E+00
9.30E+01,6.918E+06,-7.477E-02,-3.449E+00,2.500E+00
9.40E+01,7.244E+06,-8.476E-02,-3.443E+00,2.500E+00
9.50E+01,7.586E+06,-1.697E-01,-3.729E+00,2.500E+00
9.60E+01,7.943E+06,-1.877E-01,-3.029E+00,2.500E+00
9.70E+01,8.318E+06,-3.254E-01,-3.075E+00,2.500E+00
9.80E+01,8.710E+06,-3.327E-01,-3.304E+00,2.500E+00
9.90E+01,9.120E+06,-3.897E-01,-3.111E+00,2.500E+00
1.00E+02,9.550E+06,-5.876E-01,-3.060E+00,2.500E+00
1.01E+02,1.000E+07,-5.330E-01,-3.046E+00,2.500E+00
1.02E+02,1.047E+07,-5.954E-01,-2.901E+00,2.500E+00
1.03E+02,1.096E+07,-5.963E-01,-2.859E+00,2.500E+00
1.04E+02,1.148E+07,-7.591E-01,-2.642E+00,2.500E+00
1.05E+02,1.202E+07,-8.457E-01,-1.467E+00,2.500E+00
1.06E+02,1.259E+07,-8.896E-01,-1.953E+00,2.500E+00
1.07E+02,1.318E+07,-9.621E-01,-1.175E+00,2.500E+00
1.08E+02,1.380E+07,-9.559E-01,-2.294E+00,2.500E+00
1.09E+02,1.445E+07,-1.054E+00,-1.381E+00,2.500E+00
1.10E+02,1.514E+07,-1.177E+00,-1.228E+00,2.500E+00
1.11E+02,1.585E+07,-1.207E+00,-2.469E-01,2.500E+00
1.12E+02,1.660E+07,-1.456E+00,1.303E-02,2.500E+00
1.13E+02,1.738E+07,-1.515E+00,6.602E-01,2.500E+00
1.14E+02,1.820E+07,-1.484E+00,1.563E+00,2.500E+00
1.15E+02,1.905E+07,-1.775E+00,-9.797E-02,2.500E+00
1.16E+02,1.995E+07,-1.779E+00,7.525E-01,2.500E+00
1.17E+02,2.089E+07,-1.865E+00,3.113E-01,2.500E+00
1.18E+02,2.188E+07,-1.797E+00,5.607E-01,2.500E+00
1.19E+02,2.291E+07,-2.257E+00,1.636E+00,2.500E+00
1.20E+02,2.399E+07,-2.283E+00,3.147E+00,2.500E+00
